# Matter power spectrum P(k) at redshift z=0
# for k=1.02819e-05 to 1.21636 h/Mpc,
# number of wavenumbers equal to 579
# k (h/Mpc)  P (Mpc/h)^3:
1.028186e-05 2.4788889908e+01
1.365883e-04 3.2913437332e+02
2.628976e-04 6.3263108528e+02
3.892097e-04 9.3458641564e+02
5.155246e-04 1.2344512985e+03
6.418426e-04 1.5318195787e+03
7.681636e-04 1.8264007514e+03
8.944876e-04 2.1179854826e+03
1.020815e-03 2.4064127298e+03
1.147145e-03 2.6915542202e+03
1.273479e-03 2.9733499373e+03
1.399816e-03 3.2517892710e+03
1.526156e-03 3.5267138842e+03
1.652500e-03 3.7980648432e+03
1.778847e-03 4.0658219344e+03
1.905198e-03 4.3299544395e+03
2.031553e-03 4.5904429976e+03
2.157912e-03 4.8472786947e+03
2.284274e-03 5.1004642810e+03
2.410640e-03 5.3499984557e+03
2.537010e-03 5.5958847089e+03
2.663385e-03 5.8381427220e+03
2.789763e-03 6.0767867654e+03
2.916146e-03 6.3118289505e+03
3.042533e-03 6.5433041653e+03
3.168924e-03 6.7712253124e+03
3.295320e-03 6.9956167105e+03
3.421721e-03 7.2165112776e+03
3.548126e-03 7.4339418392e+03
3.674536e-03 7.6479198830e+03
3.800951e-03 7.8584901528e+03
3.927371e-03 8.0656789273e+03
4.053796e-03 8.2695104090e+03
4.180226e-03 8.4700267614e+03
4.306661e-03 8.6672608303e+03
4.433102e-03 8.8612442657e+03
4.559548e-03 9.0520001128e+03
4.686000e-03 9.2395689101e+03
4.812458e-03 9.4239661198e+03
4.938922e-03 9.6052976403e+03
5.065391e-03 9.7834965428e+03
5.191867e-03 9.9587189960e+03
5.318349e-03 1.0130824875e+04
5.444837e-03 1.0300016741e+04
5.571331e-03 1.0466164388e+04
5.697833e-03 1.0629414199e+04
5.824340e-03 1.0789735390e+04
5.950855e-03 1.0947199820e+04
6.077377e-03 1.1101851803e+04
6.203906e-03 1.1253669300e+04
6.330442e-03 1.1402729042e+04
6.456986e-03 1.1549559930e+04
6.583537e-03 1.1693094329e+04
6.710097e-03 1.1833763057e+04
6.836663e-03 1.1971811461e+04
6.963239e-03 1.2107451330e+04
7.089822e-03 1.2240973963e+04
7.216414e-03 1.2371298817e+04
7.343014e-03 1.2498881064e+04
7.469623e-03 1.2624405336e+04
7.596241e-03 1.2748009595e+04
7.722868e-03 1.2867659255e+04
7.849504e-03 1.2985694320e+04
7.976150e-03 1.3101293367e+04
8.102805e-03 1.3215209261e+04
8.229471e-03 1.3325574581e+04
8.356146e-03 1.3434231426e+04
8.482832e-03 1.3540220260e+04
8.609528e-03 1.3644256351e+04
8.736235e-03 1.3746309173e+04
8.862952e-03 1.3845361635e+04
8.989681e-03 1.3942780273e+04
9.116422e-03 1.4037765003e+04
9.243174e-03 1.4130634911e+04
9.369937e-03 1.4222477051e+04
9.496713e-03 1.4310365337e+04
9.623501e-03 1.4397257570e+04
9.750302e-03 1.4481184375e+04
9.877115e-03 1.4563601037e+04
1.000394e-02 1.4644104969e+04
1.013078e-02 1.4722490276e+04
1.025764e-02 1.4799063093e+04
1.038450e-02 1.4873491088e+04
1.051138e-02 1.4946049017e+04
1.063828e-02 1.5016734511e+04
1.076519e-02 1.5085507874e+04
1.089212e-02 1.5152392029e+04
1.101906e-02 1.5217440456e+04
1.114602e-02 1.5280624754e+04
1.127299e-02 1.5342050989e+04
1.139998e-02 1.5401708561e+04
1.152698e-02 1.5459813963e+04
1.165401e-02 1.5515568495e+04
1.178105e-02 1.5569952632e+04
1.190811e-02 1.5622644299e+04
1.203518e-02 1.5673581847e+04
1.216228e-02 1.5722909925e+04
1.228939e-02 1.5770549418e+04
1.241652e-02 1.5816497939e+04
1.254368e-02 1.5860915152e+04
1.267085e-02 1.5903680539e+04
1.279804e-02 1.5944914527e+04
1.292526e-02 1.5984519239e+04
1.305249e-02 1.6022633987e+04
1.317975e-02 1.6059242049e+04
1.330703e-02 1.6094329305e+04
1.343433e-02 1.6127946998e+04
1.356165e-02 1.6160032799e+04
1.368900e-02 1.6190693511e+04
1.381637e-02 1.6219956879e+04
1.394377e-02 1.6247761276e+04
1.407119e-02 1.6274120319e+04
1.419864e-02 1.6299433332e+04
1.432611e-02 1.6322983406e+04
1.445361e-02 1.6345213177e+04
1.458114e-02 1.6366148481e+04
1.470870e-02 1.6385836841e+04
1.483628e-02 1.6404340969e+04
1.496389e-02 1.6421367432e+04
1.509153e-02 1.6437103549e+04
1.521920e-02 1.6451749908e+04
1.534691e-02 1.6465137946e+04
1.547464e-02 1.6477172155e+04
1.560241e-02 1.6487975891e+04
1.573021e-02 1.6497679352e+04
1.585804e-02 1.6506235928e+04
1.598590e-02 1.6513735470e+04
1.611380e-02 1.6519938656e+04
1.624174e-02 1.6524949505e+04
1.636971e-02 1.6528943531e+04
1.649772e-02 1.6531799815e+04
1.662577e-02 1.6533680977e+04
1.675385e-02 1.6534448839e+04
1.688198e-02 1.6534097016e+04
1.701014e-02 1.6532760579e+04
1.713835e-02 1.6530327624e+04
1.726660e-02 1.6526988697e+04
1.739489e-02 1.6522515056e+04
1.752322e-02 1.6517110136e+04
1.765160e-02 1.6510736016e+04
1.778002e-02 1.6503666465e+04
1.790849e-02 1.6495177966e+04
1.803701e-02 1.6486017222e+04
1.816557e-02 1.6476026462e+04
1.829419e-02 1.6465125679e+04
1.842285e-02 1.6453063834e+04
1.855157e-02 1.6440406137e+04
1.868034e-02 1.6426786623e+04
1.880916e-02 1.6412047617e+04
1.893804e-02 1.6396917210e+04
1.906697e-02 1.6380924373e+04
1.919596e-02 1.6363881023e+04
1.932501e-02 1.6345997884e+04
1.945412e-02 1.6327616594e+04
1.958329e-02 1.6308413559e+04
1.971252e-02 1.6288248410e+04
1.984181e-02 1.6267479138e+04
1.997117e-02 1.6245911604e+04
2.010059e-02 1.6223564171e+04
2.023008e-02 1.6200706801e+04
2.035964e-02 1.6176771780e+04
2.048928e-02 1.6152477229e+04
2.061898e-02 1.6127362213e+04
2.074875e-02 1.6101742930e+04
2.087861e-02 1.6075374133e+04
2.100853e-02 1.6048476920e+04
2.113854e-02 1.6020761518e+04
2.126862e-02 1.5992270865e+04
2.139879e-02 1.5963567498e+04
2.152904e-02 1.5934029902e+04
2.165938e-02 1.5903460048e+04
2.178980e-02 1.5873255998e+04
2.192031e-02 1.5841887649e+04
2.205091e-02 1.5810421210e+04
2.218160e-02 1.5778052223e+04
2.231239e-02 1.5745036353e+04
2.244328e-02 1.5711816675e+04
2.257426e-02 1.5677787576e+04
2.270535e-02 1.5643599926e+04
2.283653e-02 1.5608475432e+04
2.296783e-02 1.5573064285e+04
2.309923e-02 1.5537161266e+04
2.323074e-02 1.5500971604e+04
2.336236e-02 1.5464616465e+04
2.349410e-02 1.5426834092e+04
2.362595e-02 1.5389242514e+04
2.375793e-02 1.5351236787e+04
2.389002e-02 1.5312806031e+04
2.402225e-02 1.5273704122e+04
2.415460e-02 1.5234281593e+04
2.428708e-02 1.5194636078e+04
2.441969e-02 1.5154489908e+04
2.455245e-02 1.5114145892e+04
2.468534e-02 1.5073307661e+04
2.481837e-02 1.5032208858e+04
2.495155e-02 1.4990712033e+04
2.508488e-02 1.4948585999e+04
2.521836e-02 1.4906594654e+04
2.535200e-02 1.4864093758e+04
2.548580e-02 1.4821364955e+04
2.561976e-02 1.4778091258e+04
2.575388e-02 1.4734697237e+04
2.588818e-02 1.4690895532e+04
2.602265e-02 1.4646980953e+04
2.615730e-02 1.4602645371e+04
2.629214e-02 1.4558027586e+04
2.642716e-02 1.4513163541e+04
2.656237e-02 1.4468048924e+04
2.669777e-02 1.4422927270e+04
2.683338e-02 1.4377401542e+04
2.696919e-02 1.4331650457e+04
2.710521e-02 1.4285480015e+04
2.724144e-02 1.4239722275e+04
2.737789e-02 1.4193465273e+04
2.751457e-02 1.4146437313e+04
2.765148e-02 1.4099482896e+04
2.778862e-02 1.4052582508e+04
2.792600e-02 1.4005470034e+04
2.806362e-02 1.3958081035e+04
2.820150e-02 1.3910556903e+04
2.833964e-02 1.3862914233e+04
2.847804e-02 1.3814909108e+04
2.861671e-02 1.3766905131e+04
2.875565e-02 1.3719009668e+04
2.889488e-02 1.3670633565e+04
2.903440e-02 1.3622117779e+04
2.917422e-02 1.3573764287e+04
2.931434e-02 1.3525124698e+04
2.945477e-02 1.3476154272e+04
2.959553e-02 1.3427370442e+04
2.973661e-02 1.3378242531e+04
2.987802e-02 1.3329277036e+04
3.001979e-02 1.3280022552e+04
3.016190e-02 1.3230609290e+04
3.030437e-02 1.3181645995e+04
3.044722e-02 1.3131890434e+04
3.059044e-02 1.3082306404e+04
3.073405e-02 1.3032719497e+04
3.087807e-02 1.2983099837e+04
3.102249e-02 1.2933383414e+04
3.116733e-02 1.2883481290e+04
3.131260e-02 1.2833633479e+04
3.145832e-02 1.2783803174e+04
3.160449e-02 1.2733603233e+04
3.175112e-02 1.2683785350e+04
3.189824e-02 1.2633704142e+04
3.204584e-02 1.2583752713e+04
3.219395e-02 1.2533420692e+04
3.234257e-02 1.2483456406e+04
3.249173e-02 1.2433382910e+04
3.264143e-02 1.2383026202e+04
3.279169e-02 1.2332906583e+04
3.294253e-02 1.2282671603e+04
3.309396e-02 1.2232539835e+04
3.324600e-02 1.2181966110e+04
3.339866e-02 1.2131922182e+04
3.355197e-02 1.2081583887e+04
3.370594e-02 1.2031375941e+04
3.386059e-02 1.1980866119e+04
3.401594e-02 1.1930665943e+04
3.417200e-02 1.1880492590e+04
3.432882e-02 1.1830271178e+04
3.448639e-02 1.1780119635e+04
3.464475e-02 1.1729734113e+04
3.480392e-02 1.1679439605e+04
3.496392e-02 1.1629445142e+04
3.512478e-02 1.1578976895e+04
3.528653e-02 1.1528919702e+04
3.544919e-02 1.1478669567e+04
3.561280e-02 1.1428484723e+04
3.577737e-02 1.1378316079e+04
3.594294e-02 1.1328081888e+04
3.610955e-02 1.1278037715e+04
3.627723e-02 1.1227821695e+04
3.644601e-02 1.1177636009e+04
3.661593e-02 1.1127818448e+04
3.678702e-02 1.1077692056e+04
3.695933e-02 1.1027821089e+04
3.713290e-02 1.0977883460e+04
3.730777e-02 1.0927958845e+04
3.748398e-02 1.0878188109e+04
3.766159e-02 1.0827864943e+04
3.784064e-02 1.0778100289e+04
3.802119e-02 1.0728107743e+04
3.820329e-02 1.0678061633e+04
3.838699e-02 1.0628358593e+04
3.857236e-02 1.0578495307e+04
3.875946e-02 1.0528520757e+04
3.894836e-02 1.0478723318e+04
3.913912e-02 1.0428749863e+04
3.933183e-02 1.0379146528e+04
3.952654e-02 1.0329174370e+04
3.972336e-02 1.0279269474e+04
3.992237e-02 1.0229590073e+04
4.012365e-02 1.0179742800e+04
4.032730e-02 1.0129812289e+04
4.053342e-02 1.0079950863e+04
4.074214e-02 1.0030058054e+04
4.095354e-02 9.9799772364e+03
4.116777e-02 9.9298811424e+03
4.138495e-02 9.8800932916e+03
4.160522e-02 9.8300815050e+03
4.182873e-02 9.7799182438e+03
4.205563e-02 9.7303306986e+03
4.228609e-02 9.6790624704e+03
4.252029e-02 9.6294650582e+03
4.275843e-02 9.5791548047e+03
4.300071e-02 9.5287364495e+03
4.324735e-02 9.4781593344e+03
4.349860e-02 9.4273675815e+03
4.375472e-02 9.3767790688e+03
4.401598e-02 9.3256156604e+03
4.428268e-02 9.2747308979e+03
4.455516e-02 9.2235497472e+03
4.483378e-02 9.1724725130e+03
4.511891e-02 9.1207920368e+03
4.541100e-02 9.0689758191e+03
4.571049e-02 9.0169775959e+03
4.601791e-02 8.9649036123e+03
4.633381e-02 8.9124102538e+03
4.665882e-02 8.8594994633e+03
4.699362e-02 8.8065654275e+03
4.733896e-02 8.7536720041e+03
4.769570e-02 8.6991831511e+03
4.806477e-02 8.6451164111e+03
4.844724e-02 8.5904826525e+03
4.884430e-02 8.5353217344e+03
4.925729e-02 8.4798238683e+03
4.968773e-02 8.4229688070e+03
5.013737e-02 8.3665299694e+03
5.060818e-02 8.3087868772e+03
5.110245e-02 8.2501958341e+03
5.162282e-02 8.1906900320e+03
5.217234e-02 8.1299847076e+03
5.275459e-02 8.0682867976e+03
5.337376e-02 8.0050235702e+03
5.403479e-02 7.9400818756e+03
5.474354e-02 7.8733342883e+03
5.550698e-02 7.8040730182e+03
5.633345e-02 7.7320892553e+03
5.723291e-02 7.6565728691e+03
5.821729e-02 7.5767581136e+03
5.930077e-02 7.4912319537e+03
6.050007e-02 7.3985836091e+03
6.183441e-02 7.2965311422e+03
6.332510e-02 7.1820545444e+03
6.499418e-02 7.0512011776e+03
6.686181e-02 6.8990827587e+03
6.894222e-02 6.7203552542e+03
7.123885e-02 6.5099508913e+03
7.374080e-02 6.2650391988e+03
7.642302e-02 5.9864203062e+03
7.925110e-02 5.6798483460e+03
8.218858e-02 5.3554636579e+03
8.520303e-02 5.0261674948e+03
8.826902e-02 4.7053884866e+03
9.136836e-02 4.4047805337e+03
9.448876e-02 4.1337511149e+03
9.762227e-02 3.8965271939e+03
1.007639e-01 3.6963650195e+03
1.039104e-01 3.5315501434e+03
1.070599e-01 3.3988699942e+03
1.102113e-01 3.2929422064e+03
1.133638e-01 3.2072648759e+03
1.165170e-01 3.1347780792e+03
1.196706e-01 3.0688700075e+03
1.228244e-01 3.0028128754e+03
1.259784e-01 2.9319794721e+03
1.291325e-01 2.8527609889e+03
1.322866e-01 2.7634931588e+03
1.354408e-01 2.6643653323e+03
1.385949e-01 2.5571286912e+03
1.417491e-01 2.4446479311e+03
1.449033e-01 2.3305278980e+03
1.480576e-01 2.2184566343e+03
1.512118e-01 2.1119517385e+03
1.543660e-01 2.0138083587e+03
1.575202e-01 1.9260084170e+03
1.606744e-01 1.8494911123e+03
1.638286e-01 1.7845309865e+03
1.669829e-01 1.7303848222e+03
1.701371e-01 1.6855761576e+03
1.732913e-01 1.6483264541e+03
1.764455e-01 1.6164616555e+03
1.795997e-01 1.5880835257e+03
1.827540e-01 1.5608836126e+03
1.859082e-01 1.5328022046e+03
1.890624e-01 1.5023012291e+03
1.922166e-01 1.4684453363e+03
1.953708e-01 1.4309661022e+03
1.985251e-01 1.3901320520e+03
2.016793e-01 1.3467537702e+03
2.048335e-01 1.3019027661e+03
2.079877e-01 1.2567143016e+03
2.111419e-01 1.2123919216e+03
2.142962e-01 1.1699093610e+03
2.174504e-01 1.1301587558e+03
2.206046e-01 1.0938332183e+03
2.237588e-01 1.0611645089e+03
2.269130e-01 1.0323578583e+03
2.300673e-01 1.0072393757e+03
2.332215e-01 9.8540252819e+02
2.363757e-01 9.6620423223e+02
2.395299e-01 9.4895326953e+02
2.426841e-01 9.3290559553e+02
2.458383e-01 9.1735981299e+02
2.489926e-01 9.0172393009e+02
2.521468e-01 8.8552450123e+02
2.553010e-01 8.6848881221e+02
2.584552e-01 8.5044283064e+02
2.616094e-01 8.3141251405e+02
2.647637e-01 8.1152674289e+02
2.679179e-01 7.9108116770e+02
2.710721e-01 7.7044156310e+02
2.742263e-01 7.5004646176e+02
2.773805e-01 7.3027594732e+02
2.805348e-01 7.1146695420e+02
2.836890e-01 6.9385598231e+02
2.868432e-01 6.7754358564e+02
2.899974e-01 6.6260206459e+02
2.931516e-01 6.4894195044e+02
2.963059e-01 6.3643842886e+02
2.994601e-01 6.2495854770e+02
3.026143e-01 6.1424532606e+02
3.057685e-01 6.0412306212e+02
3.089227e-01 5.9433850411e+02
3.120770e-01 5.8468303046e+02
3.152312e-01 5.7498659783e+02
3.183854e-01 5.6512670673e+02
3.215396e-01 5.5503142605e+02
3.246938e-01 5.4472927155e+02
3.278480e-01 5.3426358876e+02
3.310023e-01 5.2371156000e+02
3.341565e-01 5.1314528897e+02
3.373107e-01 5.0268117358e+02
3.404649e-01 4.9242268723e+02
3.436191e-01 4.8244783471e+02
3.467734e-01 4.7284937597e+02
3.499276e-01 4.6369194274e+02
3.530818e-01 4.5502777679e+02
3.562360e-01 4.4684017077e+02
3.593902e-01 4.3911793794e+02
3.625445e-01 4.3182247283e+02
3.656987e-01 4.2488101712e+02
3.688529e-01 4.1823174355e+02
3.720071e-01 4.1178454840e+02
3.751613e-01 4.0551165230e+02
3.783156e-01 3.9934465870e+02
3.814698e-01 3.9323533982e+02
3.846240e-01 3.8714230086e+02
3.877782e-01 3.8103330450e+02
3.909324e-01 3.7490909069e+02
3.940867e-01 3.6876405569e+02
3.972409e-01 3.6262887664e+02
4.003951e-01 3.5653849393e+02
4.035493e-01 3.5053676181e+02
4.067035e-01 3.4465418397e+02
4.098578e-01 3.3892211877e+02
4.130120e-01 3.3336219271e+02
4.161662e-01 3.2799250845e+02
4.193204e-01 3.2282026939e+02
4.224746e-01 3.1785347025e+02
4.256288e-01 3.1308557796e+02
4.287831e-01 3.0850462407e+02
4.319373e-01 3.0408376394e+02
4.350915e-01 2.9979429654e+02
4.382457e-01 2.9560559774e+02
4.413999e-01 2.9149100987e+02
4.445542e-01 2.8742824014e+02
4.477084e-01 2.8340157666e+02
4.508626e-01 2.7941077917e+02
4.540168e-01 2.7545282714e+02
4.571710e-01 2.7153151800e+02
4.603253e-01 2.6764484741e+02
4.634795e-01 2.6379762369e+02
4.666337e-01 2.6000218275e+02
4.697879e-01 2.5626567183e+02
4.729421e-01 2.5260478177e+02
4.760964e-01 2.4902821007e+02
4.792506e-01 2.4554362041e+02
4.824048e-01 2.4215371851e+02
4.855590e-01 2.3885176157e+02
4.887132e-01 2.3563825917e+02
4.918675e-01 2.3250301282e+02
4.950217e-01 2.2944212868e+02
4.981759e-01 2.2645485427e+02
5.013301e-01 2.2353411432e+02
5.044843e-01 2.2067580223e+02
5.076385e-01 2.1787015011e+02
5.107928e-01 2.1510814272e+02
5.139470e-01 2.1238407714e+02
5.171012e-01 2.0969011068e+02
5.202554e-01 2.0702914783e+02
5.234096e-01 2.0439987777e+02
5.265639e-01 2.0180682756e+02
5.297181e-01 1.9925195486e+02
5.328723e-01 1.9673670166e+02
5.360265e-01 1.9426069631e+02
5.391807e-01 1.9182531138e+02
5.423350e-01 1.8943334618e+02
5.454892e-01 1.8708549820e+02
5.486434e-01 1.8478690094e+02
5.517976e-01 1.8253730201e+02
5.549518e-01 1.8033748187e+02
5.581061e-01 1.7818437104e+02
5.612603e-01 1.7607257839e+02
5.644145e-01 1.7399914968e+02
5.675687e-01 1.7195940723e+02
5.707229e-01 1.6995255600e+02
5.738772e-01 1.6798031778e+02
5.770314e-01 1.6603694720e+02
5.801856e-01 1.6412511967e+02
5.833398e-01 1.6224009791e+02
5.864940e-01 1.6038084156e+02
5.896483e-01 1.5854595703e+02
5.928025e-01 1.5673366525e+02
5.959567e-01 1.5494806160e+02
5.991109e-01 1.5318866200e+02
6.022651e-01 1.5145833287e+02
6.054193e-01 1.4975756925e+02
6.085736e-01 1.4808463202e+02
6.117278e-01 1.4643800690e+02
6.148820e-01 1.4481808300e+02
6.180362e-01 1.4322314239e+02
6.211904e-01 1.4165483703e+02
6.243447e-01 1.4011342873e+02
6.274989e-01 1.3859842494e+02
6.306531e-01 1.3710917207e+02
6.338073e-01 1.3564430471e+02
6.369615e-01 1.3420037639e+02
6.401158e-01 1.3277665062e+02
6.432700e-01 1.3137157777e+02
6.464242e-01 1.2998673642e+02
6.495784e-01 1.2862151384e+02
6.527326e-01 1.2727692091e+02
6.558869e-01 1.2595217939e+02
6.590411e-01 1.2464548081e+02
6.621953e-01 1.2335671061e+02
6.653495e-01 1.2208422490e+02
6.685037e-01 1.2082866846e+02
6.716580e-01 1.1959102038e+02
6.748122e-01 1.1837224235e+02
6.779664e-01 1.1717208371e+02
6.811206e-01 1.1599047603e+02
6.842748e-01 1.1482640748e+02
6.874291e-01 1.1367775277e+02
6.905833e-01 1.1254481411e+02
6.937375e-01 1.1142737515e+02
6.968917e-01 1.1032607987e+02
7.000459e-01 1.0924130495e+02
7.032001e-01 1.0817235484e+02
7.063544e-01 1.0711977779e+02
7.095086e-01 1.0608067409e+02
7.126628e-01 1.0505452141e+02
7.158170e-01 1.0404084496e+02
7.189712e-01 1.0304017074e+02
7.221255e-01 1.0205234980e+02
7.252797e-01 1.0107845429e+02
7.284339e-01 1.0011906065e+02
7.315881e-01 9.9171064975e+01
7.347423e-01 9.8236412064e+01
7.378966e-01 9.7312792510e+01
7.410508e-01 9.6400583310e+01
7.442050e-01 9.5499494979e+01
7.473592e-01 9.4611162503e+01
7.505134e-01 9.3735243044e+01
7.536677e-01 9.2871710571e+01
7.568219e-01 9.2020363591e+01
7.599761e-01 9.1179133195e+01
7.631303e-01 9.0347618050e+01
7.662845e-01 8.9526799134e+01
7.694388e-01 8.8715450466e+01
7.725930e-01 8.7914879272e+01
7.757472e-01 8.7125124363e+01
7.789014e-01 8.6345739754e+01
7.820556e-01 8.5576355213e+01
8.682247e-01 6.7776173774e+01
1.001158e+00 4.9125930326e+01
1.216356e+00 3.1422639890e+01
