# Matter power spectrum P(k) at redshift z=0
# for k=1.02819e-05 to 1.21636 h/Mpc,
# number of wavenumbers equal to 579
# k (h/Mpc)  P (Mpc/h)^3:
1.028186e-05 4.0624622405e+01
1.365883e-04 5.3942173272e+02
2.628976e-04 1.0369604641e+03
3.892097e-04 1.5321851206e+03
5.155246e-04 2.0242270035e+03
6.418426e-04 2.5124232389e+03
7.681636e-04 2.9962907222e+03
8.944876e-04 3.4754784543e+03
1.020815e-03 3.9497158759e+03
1.147145e-03 4.4187873844e+03
1.273479e-03 4.8825494800e+03
1.399816e-03 5.3409110765e+03
1.526156e-03 5.7936677909e+03
1.652500e-03 6.2407244076e+03
1.778847e-03 6.6820087433e+03
1.905198e-03 7.1174620614e+03
2.031553e-03 7.5470446914e+03
2.157912e-03 7.9707284618e+03
2.284274e-03 8.3884969501e+03
2.410640e-03 8.8003454714e+03
2.537010e-03 9.2062728656e+03
2.663385e-03 9.6062930718e+03
2.789763e-03 1.0000422861e+04
2.916146e-03 1.0388675758e+04
3.042533e-03 1.0771091807e+04
3.168924e-03 1.1147693438e+04
3.295320e-03 1.1518515315e+04
3.421721e-03 1.1883596779e+04
3.548126e-03 1.2242984249e+04
3.674536e-03 1.2596715984e+04
3.800951e-03 1.2944836082e+04
3.927371e-03 1.3287393328e+04
4.053796e-03 1.3624438816e+04
4.180226e-03 1.3956008291e+04
4.306661e-03 1.4282171575e+04
4.433102e-03 1.4602967052e+04
4.559548e-03 1.4918457157e+04
4.686000e-03 1.5228642446e+04
4.812458e-03 1.5533563616e+04
4.938922e-03 1.5833503274e+04
5.065391e-03 1.6128340815e+04
5.191867e-03 1.6418046794e+04
5.318349e-03 1.6702798798e+04
5.444837e-03 1.6982477588e+04
5.571331e-03 1.7257237563e+04
5.697833e-03 1.7527149157e+04
5.824340e-03 1.7792232870e+04
5.950855e-03 1.8052569864e+04
6.077377e-03 1.8308249878e+04
6.203906e-03 1.8559295718e+04
6.330442e-03 1.8806231639e+04
6.456986e-03 1.9048444456e+04
6.583537e-03 1.9286003125e+04
6.710097e-03 1.9519285125e+04
6.836663e-03 1.9748224378e+04
6.963239e-03 1.9972550563e+04
7.089822e-03 2.0192934273e+04
7.216414e-03 2.0408875920e+04
7.343014e-03 2.0620615675e+04
7.469623e-03 2.0828263692e+04
7.596241e-03 2.1032018100e+04
7.722868e-03 2.1231503724e+04
7.849504e-03 2.1427095112e+04
7.976150e-03 2.1618713227e+04
8.102805e-03 2.1806284871e+04
8.229471e-03 2.1990164897e+04
8.356146e-03 2.2170106442e+04
8.482832e-03 2.2346260365e+04
8.609528e-03 2.2518711884e+04
8.736235e-03 2.2687349760e+04
8.862952e-03 2.2852374664e+04
8.989681e-03 2.3013809412e+04
9.116422e-03 2.3171499920e+04
9.243174e-03 2.3325781176e+04
9.369937e-03 2.3476510441e+04
9.496713e-03 2.3623722841e+04
9.623501e-03 2.3767371915e+04
9.750302e-03 2.3907913732e+04
9.877115e-03 2.4045001414e+04
1.000394e-02 2.4178686966e+04
1.013078e-02 2.4309090062e+04
1.025764e-02 2.4436353612e+04
1.038450e-02 2.4560382130e+04
1.051138e-02 2.4681151160e+04
1.063828e-02 2.4798876102e+04
1.076519e-02 2.4913541035e+04
1.089212e-02 2.5025071400e+04
1.101906e-02 2.5133508790e+04
1.114602e-02 2.5238996635e+04
1.127299e-02 2.5341551755e+04
1.139998e-02 2.5441158048e+04
1.152698e-02 2.5537809767e+04
1.165401e-02 2.5631735878e+04
1.178105e-02 2.5722670186e+04
1.190811e-02 2.5810835232e+04
1.203518e-02 2.5896193194e+04
1.216228e-02 2.5978927742e+04
1.228939e-02 2.6058877882e+04
1.241652e-02 2.6136130262e+04
1.254368e-02 2.6210700038e+04
1.267085e-02 2.6282589866e+04
1.279804e-02 2.6351935436e+04
1.292526e-02 2.6418700313e+04
1.305249e-02 2.6483016142e+04
1.317975e-02 2.6544698565e+04
1.330703e-02 2.6603871521e+04
1.343433e-02 2.6660778091e+04
1.356165e-02 2.6715231153e+04
1.368900e-02 2.6767231953e+04
1.381637e-02 2.6816897631e+04
1.394377e-02 2.6864127837e+04
1.407119e-02 2.6909185391e+04
1.419864e-02 2.6951915891e+04
1.432611e-02 2.6992349404e+04
1.445361e-02 2.7030723204e+04
1.458114e-02 2.7066577058e+04
1.470870e-02 2.7100402866e+04
1.483628e-02 2.7132218920e+04
1.496389e-02 2.7161802514e+04
1.509153e-02 2.7189240262e+04
1.521920e-02 2.7214657352e+04
1.534691e-02 2.7237937435e+04
1.547464e-02 2.7259373973e+04
1.560241e-02 2.7278718412e+04
1.573021e-02 2.7296161169e+04
1.585804e-02 2.7311526240e+04
1.598590e-02 2.7325164442e+04
1.611380e-02 2.7336636920e+04
1.624174e-02 2.7346440203e+04
1.636971e-02 2.7354218269e+04
1.649772e-02 2.7360417792e+04
1.662577e-02 2.7364461118e+04
1.675385e-02 2.7366996981e+04
1.688198e-02 2.7367865417e+04
1.701014e-02 2.7366692922e+04
1.713835e-02 2.7364159072e+04
1.726660e-02 2.7359722987e+04
1.739489e-02 2.7353512430e+04
1.752322e-02 2.7345680915e+04
1.765160e-02 2.7336600386e+04
1.778002e-02 2.7325696719e+04
1.790849e-02 2.7313036950e+04
1.803701e-02 2.7299140080e+04
1.816557e-02 2.7283476676e+04
1.829419e-02 2.7266509392e+04
1.842285e-02 2.7247826905e+04
1.855157e-02 2.7227897358e+04
1.868034e-02 2.7206533254e+04
1.880916e-02 2.7183714805e+04
1.893804e-02 2.7159340850e+04
1.906697e-02 2.7133775894e+04
1.919596e-02 2.7106580638e+04
1.932501e-02 2.7078271795e+04
1.945412e-02 2.7048639958e+04
1.958329e-02 2.7017737761e+04
1.971252e-02 2.6985523931e+04
1.984181e-02 2.6951993461e+04
1.997117e-02 2.6917233311e+04
2.010059e-02 2.6881091854e+04
2.023008e-02 2.6844017036e+04
2.035964e-02 2.6806026436e+04
2.048928e-02 2.6766395266e+04
2.061898e-02 2.6725893618e+04
2.074875e-02 2.6683920831e+04
2.087861e-02 2.6641117406e+04
2.100853e-02 2.6597400414e+04
2.113854e-02 2.6552575892e+04
2.126862e-02 2.6506445463e+04
2.139879e-02 2.6459376171e+04
2.152904e-02 2.6411087702e+04
2.165938e-02 2.6362269182e+04
2.178980e-02 2.6312357769e+04
2.192031e-02 2.6261497045e+04
2.205091e-02 2.6209507536e+04
2.218160e-02 2.6156494623e+04
2.231239e-02 2.6103261163e+04
2.244328e-02 2.6048140075e+04
2.257426e-02 2.5993191767e+04
2.270535e-02 2.5936479864e+04
2.283653e-02 2.5879528008e+04
2.296783e-02 2.5821161566e+04
2.309923e-02 2.5762706729e+04
2.323074e-02 2.5703298380e+04
2.336236e-02 2.5643551904e+04
2.349410e-02 2.5582477222e+04
2.362595e-02 2.5519674862e+04
2.375793e-02 2.5457937943e+04
2.389002e-02 2.5394732050e+04
2.402225e-02 2.5330594575e+04
2.415460e-02 2.5266231463e+04
2.428708e-02 2.5200845312e+04
2.441969e-02 2.5135015918e+04
2.455245e-02 2.5068656990e+04
2.468534e-02 2.5001434906e+04
2.481837e-02 2.4933854375e+04
2.495155e-02 2.4865414836e+04
2.508488e-02 2.4796451871e+04
2.521836e-02 2.4727151891e+04
2.535200e-02 2.4657056129e+04
2.548580e-02 2.4586387576e+04
2.561976e-02 2.4515638830e+04
2.575388e-02 2.4444214899e+04
2.588818e-02 2.4372467424e+04
2.602265e-02 2.4300309996e+04
2.615730e-02 2.4227360775e+04
2.629214e-02 2.4153628135e+04
2.642716e-02 2.4079802916e+04
2.656237e-02 2.4005969565e+04
2.669777e-02 2.3931201044e+04
2.683338e-02 2.3856073145e+04
2.696919e-02 2.3780673106e+04
2.710521e-02 2.3704893191e+04
2.724144e-02 2.3628752803e+04
2.737789e-02 2.3552188044e+04
2.751457e-02 2.3475401771e+04
2.765148e-02 2.3398017347e+04
2.778862e-02 2.3321109674e+04
2.792600e-02 2.3242969092e+04
2.806362e-02 2.3165489220e+04
2.820150e-02 2.3086370104e+04
2.833964e-02 2.3007864525e+04
2.847804e-02 2.2928768968e+04
2.861671e-02 2.2849632973e+04
2.875565e-02 2.2770216844e+04
2.889488e-02 2.2690604509e+04
2.903440e-02 2.2610999012e+04
2.917422e-02 2.2530612925e+04
2.931434e-02 2.2450479396e+04
2.945477e-02 2.2369583069e+04
2.959553e-02 2.2289390359e+04
2.973661e-02 2.2208092977e+04
2.987802e-02 2.2127204815e+04
3.001979e-02 2.2045942497e+04
3.016190e-02 2.1964294364e+04
3.030437e-02 2.1883099413e+04
3.044722e-02 2.1801167520e+04
3.059044e-02 2.1719574383e+04
3.073405e-02 2.1637511959e+04
3.087807e-02 2.1555828832e+04
3.102249e-02 2.1473302534e+04
3.116733e-02 2.1391105078e+04
3.131260e-02 2.1308695163e+04
3.145832e-02 2.1226328579e+04
3.160449e-02 2.1143794646e+04
3.175112e-02 2.1060855582e+04
3.189824e-02 2.0978816704e+04
3.204584e-02 2.0896119047e+04
3.219395e-02 2.0812811992e+04
3.234257e-02 2.0730021024e+04
3.249173e-02 2.0647314660e+04
3.264143e-02 2.0564483431e+04
3.279169e-02 2.0481590147e+04
3.294253e-02 2.0398200575e+04
3.309396e-02 2.0315203061e+04
3.324600e-02 2.0232188673e+04
3.339866e-02 2.0149121024e+04
3.355197e-02 2.0065819693e+04
3.370594e-02 1.9982872246e+04
3.386059e-02 1.9900129062e+04
3.401594e-02 1.9816724252e+04
3.417200e-02 1.9733525686e+04
3.432882e-02 1.9650693744e+04
3.448639e-02 1.9567385170e+04
3.464475e-02 1.9484146301e+04
3.480392e-02 1.9401282810e+04
3.496392e-02 1.9318010028e+04
3.512478e-02 1.9234921111e+04
3.528653e-02 1.9151864932e+04
3.544919e-02 1.9068896478e+04
3.561280e-02 1.8986108086e+04
3.577737e-02 1.8902548547e+04
3.594294e-02 1.8819945212e+04
3.610955e-02 1.8736969639e+04
3.627723e-02 1.8654084493e+04
3.644601e-02 1.8571233863e+04
3.661593e-02 1.8488424422e+04
3.678702e-02 1.8405243658e+04
3.695933e-02 1.8323042078e+04
3.713290e-02 1.8239987916e+04
3.730777e-02 1.8157333458e+04
3.748398e-02 1.8074491396e+04
3.766159e-02 1.7991977142e+04
3.784064e-02 1.7909103789e+04
3.802119e-02 1.7827026825e+04
3.820329e-02 1.7743574944e+04
3.838699e-02 1.7661509084e+04
3.857236e-02 1.7578553438e+04
3.875946e-02 1.7495769078e+04
3.894836e-02 1.7413656821e+04
3.913912e-02 1.7331001545e+04
3.933183e-02 1.7248249890e+04
3.952654e-02 1.7166689780e+04
3.972336e-02 1.7083343963e+04
3.992237e-02 1.7000325143e+04
4.012365e-02 1.6917969876e+04
4.032730e-02 1.6835353768e+04
4.053342e-02 1.6752706470e+04
4.074214e-02 1.6669638179e+04
4.095354e-02 1.6586966653e+04
4.116777e-02 1.6503888917e+04
4.138495e-02 1.6421456254e+04
4.160522e-02 1.6338632330e+04
4.182873e-02 1.6254367123e+04
4.205563e-02 1.6171900044e+04
4.228609e-02 1.6089362552e+04
4.252029e-02 1.6005408786e+04
4.275843e-02 1.5921592828e+04
4.300071e-02 1.5838334542e+04
4.324735e-02 1.5754241561e+04
4.349860e-02 1.5670324373e+04
4.375472e-02 1.5586345032e+04
4.401598e-02 1.5502271741e+04
4.428268e-02 1.5417082244e+04
4.455516e-02 1.5332100907e+04
4.483378e-02 1.5246317216e+04
4.511891e-02 1.5161271384e+04
4.541100e-02 1.5075585382e+04
4.571049e-02 1.4989462700e+04
4.601791e-02 1.4902893399e+04
4.633381e-02 1.4815527798e+04
4.665882e-02 1.4727853634e+04
4.699362e-02 1.4640070523e+04
4.733896e-02 1.4551597844e+04
4.769570e-02 1.4462550295e+04
4.806477e-02 1.4372504983e+04
4.844724e-02 1.4281780737e+04
4.884430e-02 1.4190277334e+04
4.925729e-02 1.4097983820e+04
4.968773e-02 1.4004517459e+04
5.013737e-02 1.3910357228e+04
5.060818e-02 1.3814694793e+04
5.110245e-02 1.3717459662e+04
5.162282e-02 1.3619264343e+04
5.217234e-02 1.3518662330e+04
5.275459e-02 1.3416385012e+04
5.337376e-02 1.3311764305e+04
5.403479e-02 1.3204062807e+04
5.474354e-02 1.3093205174e+04
5.550698e-02 1.2978871720e+04
5.633345e-02 1.2859641958e+04
5.723291e-02 1.2734795345e+04
5.821729e-02 1.2602598826e+04
5.930077e-02 1.2461191545e+04
6.050007e-02 1.2308063663e+04
6.183441e-02 1.2139283014e+04
6.332510e-02 1.1949939651e+04
6.499418e-02 1.1733707924e+04
6.686181e-02 1.1482319231e+04
6.894222e-02 1.1186832999e+04
7.123885e-02 1.0838072482e+04
7.374080e-02 1.0433245075e+04
7.642302e-02 9.9713624975e+03
7.925110e-02 9.4621488137e+03
8.218858e-02 8.9228974678e+03
8.520303e-02 8.3761976296e+03
8.826902e-02 7.8429000110e+03
9.136836e-02 7.3427846855e+03
9.448876e-02 6.8906711955e+03
9.762227e-02 6.4950226117e+03
1.007639e-01 6.1623772940e+03
1.039104e-01 5.8875424583e+03
1.070599e-01 5.6661723149e+03
1.102113e-01 5.4893468642e+03
1.133638e-01 5.3465065617e+03
1.165170e-01 5.2258476238e+03
1.196706e-01 5.1162189066e+03
1.228244e-01 5.0067257711e+03
1.259784e-01 4.8891151189e+03
1.291325e-01 4.7576054199e+03
1.322866e-01 4.6092916868e+03
1.354408e-01 4.4448815386e+03
1.385949e-01 4.2666494501e+03
1.417491e-01 4.0796321114e+03
1.449033e-01 3.8895665788e+03
1.480576e-01 3.7029910659e+03
1.512118e-01 3.5255764480e+03
1.543660e-01 3.3617797614e+03
1.575202e-01 3.2151273510e+03
1.606744e-01 3.0874499621e+03
1.638286e-01 2.9786938836e+03
1.669829e-01 2.8881599634e+03
1.701371e-01 2.8132456068e+03
1.732913e-01 2.7509404348e+03
1.764455e-01 2.6978658023e+03
1.795997e-01 2.6501548448e+03
1.827540e-01 2.6048390287e+03
1.859082e-01 2.5586525417e+03
1.890624e-01 2.5077535084e+03
1.922166e-01 2.4515506719e+03
1.953708e-01 2.3891599261e+03
1.985251e-01 2.3213698526e+03
2.016793e-01 2.2487279909e+03
2.048335e-01 2.1739948330e+03
2.079877e-01 2.0987989148e+03
2.111419e-01 2.0249906813e+03
2.142962e-01 1.9541954406e+03
2.174504e-01 1.8878203415e+03
2.206046e-01 1.8270769527e+03
2.237588e-01 1.7727702181e+03
2.269130e-01 1.7243674727e+03
2.300673e-01 1.6823773221e+03
2.332215e-01 1.6458308320e+03
2.363757e-01 1.6137454161e+03
2.395299e-01 1.5849218215e+03
2.426841e-01 1.5580995062e+03
2.458383e-01 1.5321169416e+03
2.489926e-01 1.5059396817e+03
2.521468e-01 1.4789622036e+03
2.553010e-01 1.4505876532e+03
2.584552e-01 1.4205523705e+03
2.616094e-01 1.3888562434e+03
2.647637e-01 1.3557396789e+03
2.679179e-01 1.3216951725e+03
2.710721e-01 1.2873271339e+03
2.742263e-01 1.2532969485e+03
2.773805e-01 1.2203765945e+03
2.805348e-01 1.1889691786e+03
2.836890e-01 1.1595185565e+03
2.868432e-01 1.1322889456e+03
2.899974e-01 1.1073063977e+03
2.931516e-01 1.0844936823e+03
2.963059e-01 1.0635476029e+03
2.994601e-01 1.0443407429e+03
3.026143e-01 1.0264359102e+03
3.057685e-01 1.0095140636e+03
3.089227e-01 9.9317555220e+02
3.120770e-01 9.7703696248e+02
3.152312e-01 9.6082784228e+02
3.183854e-01 9.4436041432e+02
3.215396e-01 9.2753540067e+02
3.246938e-01 9.1035618909e+02
3.278480e-01 8.9288387807e+02
3.310023e-01 8.7528683421e+02
3.341565e-01 8.5767860082e+02
3.373107e-01 8.4023808875e+02
3.404649e-01 8.2313302647e+02
3.436191e-01 8.0648184787e+02
3.467734e-01 7.9045545031e+02
3.499276e-01 7.7515602177e+02
3.530818e-01 7.6065898306e+02
3.562360e-01 7.4699144329e+02
3.593902e-01 7.3408302294e+02
3.625445e-01 7.2187613213e+02
3.656987e-01 7.1027928019e+02
3.688529e-01 6.9913582724e+02
3.720071e-01 6.8838209002e+02
3.751613e-01 6.7789060022e+02
3.783156e-01 6.6758711635e+02
3.814698e-01 6.5737575507e+02
3.846240e-01 6.4719642988e+02
3.877782e-01 6.3700569864e+02
3.909324e-01 6.2677493902e+02
3.940867e-01 6.1651766685e+02
3.972409e-01 6.0627388114e+02
4.003951e-01 5.9610615814e+02
4.035493e-01 5.8609324772e+02
4.067035e-01 5.7626992841e+02
4.098578e-01 5.6669694552e+02
4.130120e-01 5.5741125826e+02
4.161662e-01 5.4843602471e+02
4.193204e-01 5.3979560823e+02
4.224746e-01 5.3148912690e+02
4.256288e-01 5.2352013013e+02
4.287831e-01 5.1585394861e+02
4.319373e-01 5.0846634437e+02
4.350915e-01 5.0130320897e+02
4.382457e-01 4.9430417828e+02
4.413999e-01 4.8742485209e+02
4.445542e-01 4.8063569991e+02
4.477084e-01 4.7390407671e+02
4.508626e-01 4.6723614499e+02
4.540168e-01 4.6062512136e+02
4.571710e-01 4.5407209135e+02
4.603253e-01 4.4757788654e+02
4.634795e-01 4.4115612892e+02
4.666337e-01 4.3481618815e+02
4.697879e-01 4.2857569696e+02
4.729421e-01 4.2245739442e+02
4.760964e-01 4.1647696352e+02
4.792506e-01 4.1065681018e+02
4.824048e-01 4.0498616422e+02
4.855590e-01 3.9947217186e+02
4.887132e-01 3.9409645187e+02
4.918675e-01 3.8885493193e+02
4.950217e-01 3.8374248305e+02
4.981759e-01 3.7874511266e+02
5.013301e-01 3.7386087938e+02
5.044843e-01 3.6908269578e+02
5.076385e-01 3.6439383174e+02
5.107928e-01 3.5977926521e+02
5.139470e-01 3.5522500834e+02
5.171012e-01 3.5072634596e+02
5.202554e-01 3.4627735795e+02
5.234096e-01 3.4188304027e+02
5.265639e-01 3.3754844966e+02
5.297181e-01 3.3327956493e+02
5.328723e-01 3.2907562003e+02
5.360265e-01 3.2493784893e+02
5.391807e-01 3.2086901967e+02
5.423350e-01 3.1686836107e+02
5.454892e-01 3.1294540826e+02
5.486434e-01 3.0910112620e+02
5.517976e-01 3.0534109424e+02
5.549518e-01 3.0166394507e+02
5.581061e-01 2.9806444616e+02
5.612603e-01 2.9453389485e+02
5.644145e-01 2.9106584260e+02
5.675687e-01 2.8765790582e+02
5.707229e-01 2.8430313526e+02
5.738772e-01 2.8100128701e+02
5.770314e-01 2.7775405190e+02
5.801856e-01 2.7455805351e+02
5.833398e-01 2.7140659333e+02
5.864940e-01 2.6829889420e+02
5.896483e-01 2.6523142570e+02
5.928025e-01 2.6220363700e+02
5.959567e-01 2.5921766487e+02
5.991109e-01 2.5627698355e+02
6.022651e-01 2.5338303418e+02
6.054193e-01 2.5053912041e+02
6.085736e-01 2.4774224810e+02
6.117278e-01 2.4499130172e+02
6.148820e-01 2.4228237970e+02
6.180362e-01 2.3961581288e+02
6.211904e-01 2.3699315990e+02
6.243447e-01 2.3441543811e+02
6.274989e-01 2.3188267534e+02
6.306531e-01 2.2939352427e+02
6.338073e-01 2.2694354704e+02
6.369615e-01 2.2453032686e+02
6.401158e-01 2.2214859886e+02
6.432700e-01 2.1979928877e+02
6.464242e-01 2.1748197404e+02
6.495784e-01 2.1520089931e+02
6.527326e-01 2.1295109412e+02
6.558869e-01 2.1073704096e+02
6.590411e-01 2.0855352147e+02
6.621953e-01 2.0639716212e+02
6.653495e-01 2.0427011510e+02
6.685037e-01 2.0216951305e+02
6.716580e-01 2.0010006104e+02
6.748122e-01 1.9806153273e+02
6.779664e-01 1.9605482475e+02
6.811206e-01 1.9408046701e+02
6.842748e-01 1.9213230755e+02
6.874291e-01 1.9021255614e+02
6.905833e-01 1.8831981135e+02
6.937375e-01 1.8644960474e+02
6.968917e-01 1.8460776453e+02
7.000459e-01 1.8279374176e+02
7.032001e-01 1.8100621897e+02
7.063544e-01 1.7924420069e+02
7.095086e-01 1.7750750629e+02
7.126628e-01 1.7579217866e+02
7.158170e-01 1.7409588526e+02
7.189712e-01 1.7242361326e+02
7.221255e-01 1.7077171386e+02
7.252797e-01 1.6914285406e+02
7.284339e-01 1.6753711879e+02
7.315881e-01 1.6595281757e+02
7.347423e-01 1.6438942725e+02
7.378966e-01 1.6284503673e+02
7.410508e-01 1.6131917602e+02
7.442050e-01 1.5981366727e+02
7.473592e-01 1.5832696951e+02
7.505134e-01 1.5686173491e+02
7.536677e-01 1.5541767015e+02
7.568219e-01 1.5399221177e+02
7.599761e-01 1.5258598455e+02
7.631303e-01 1.5119603489e+02
7.662845e-01 1.4982327547e+02
7.694388e-01 1.4846636673e+02
7.725930e-01 1.4712637933e+02
7.757472e-01 1.4580551978e+02
7.789014e-01 1.4450307833e+02
7.820556e-01 1.4321548506e+02
8.682247e-01 1.1343914489e+02
1.001158e+00 8.2237382594e+01
1.216356e+00 5.2613254586e+01
